# Model: AE8max
# Altitude:  500km
# Inclination:  90deg
# Duty cycle: 76.2%
# Lat.(deg)    Domain(s) of exclusion in longitude(deg)
  -84.0         -98.35    -52.89
  -83.0        -116.96    -33.85
  -82.0        -126.45    -23.92
  -81.0        -135.84    -15.50
  -80.0        -143.06     -9.59
  -79.0        -148.31     -4.85
  -78.0        -152.58     -0.35
  -77.0        -154.85      4.39
  -76.0        -159.59      8.69
  -75.0        -163.89     11.12
  -74.0        -166.19     14.01
  -73.0        -168.92     17.77
  -72.0        -171.16     20.46
  -71.0        -173.70     23.43
  -70.0        -176.13     25.86
  -69.0        -178.38     28.21
  -68.0        -179.09     30.63
  -67.0        -179.98     37.00    171.86    179.92
  -66.0        -180.00     39.32    171.91    179.96
  -65.0        -179.95   -108.28   -100.06     39.73    171.93    179.95
  -64.0        -179.97   -118.26    -70.23     43.03    171.99    179.99
  -63.0        -179.93   -123.94    -62.51     46.85    171.95    179.97
  -62.0        -179.98   -131.47    -57.14     48.97    171.86    179.96
  -61.0        -180.00   -137.15    -52.84     52.37    171.88    179.90
  -60.0        -179.96   -142.93    -48.10     56.81    171.93    179.94
  -59.0        -179.97   -147.21    -43.36     58.55    171.89    179.98
  -58.0        -179.96   -152.46    -42.97     63.03    171.95    179.97
  -57.0        -180.00   -156.73    -38.48     67.84    167.65    179.96
  -56.0        -179.98   -161.54    -57.58     72.55    167.47    180.00
  -55.0        -179.96   -166.35    -62.18     76.92    165.67    179.98
  -54.0        -179.98   -170.70    -66.72     81.19    162.69    179.99
  -53.0        -179.99   -171.16    -67.20     81.93    161.43    179.97
  -52.0        -179.99   -171.08    -72.04     81.85    157.76    179.96
  -51.0         -72.12     84.48    156.85    176.58
  -50.0         -75.65     84.52    152.98    171.94
  -49.0         -76.90     84.44    152.70    167.10
  -48.0         -77.09     84.40    148.31    162.52
  -47.0         -77.13     84.31    147.04    157.80
  -46.0         -80.26     84.27    143.68    153.09
  -45.0         -81.07     84.67    138.97    147.56
  -44.0         -81.99     85.96
  -43.0         -82.18     86.54
  -42.0         -84.06     89.51
  -41.0         -85.34     90.54
  -40.0         -85.73     31.69     53.50     72.84     82.29     90.40
  -39.0         -85.91     14.16
  -38.0         -86.63     17.90
  -37.0         -86.81     20.26
  -36.0         -86.85     20.40
  -35.0         -87.04     20.44
  -34.0         -87.18     20.09
  -33.0         -86.72     18.78
  -32.0         -86.37     18.74
  -31.0         -86.41     17.38
  -30.0         -86.16     16.76
  -29.0         -84.10     13.77
  -28.0         -84.06     13.39
  -27.0         -86.61      8.75
  -26.0         -88.21      3.91
  -25.0         -88.61     -5.48
  -24.0         -91.47    -10.32
  -23.0         -91.95    -12.17
  -22.0         -93.01    -16.00
  -21.0         -93.05    -19.94
  -20.0         -93.14    -20.97
  -19.0         -93.18    -24.80
  -18.0         -92.78    -29.28
  -17.0         -91.55    -33.95
  -16.0         -88.63    -35.55
  -15.0         -88.67    -44.51
  -14.0         -87.84    -47.98
  -13.0         -87.15    -47.90
  -12.0         -83.75    -45.73
  -11.0         -79.48    -45.24
  -10.0         -77.02    -44.65
   -9.0         -74.51    -44.61
   -8.0         -70.14    -45.21
   -7.0         -67.06    -45.59
   -6.0         -62.76    -46.41
   -5.0         -58.80    -57.38
   39.0        -106.43    -81.60
   40.0        -112.42    -76.35
   41.0        -119.68    -74.52
   42.0        -125.06    -72.92
   43.0        -129.99    -72.10
   44.0        -134.73    -68.78
   45.0        -139.95    -55.26
   46.0        -144.77    -52.97
   47.0        -150.02    -48.40
   48.0        -154.29    -43.69
   49.0        -159.10    -38.96
   50.0        -163.81    -34.26
   51.0        -168.62    -25.70
   52.0        -173.43    -19.79
   53.0        -178.25    -10.49
   54.0        -178.35     -1.00    169.78    179.09
   55.0        -178.26     12.95    169.74    179.05
   56.0        -178.22   -102.56    -93.41     27.13    164.90    179.02
   57.0        -178.14   -116.28    -88.80     45.93    155.17    179.06
   58.0        -178.16   -121.55    -79.33    179.15
   59.0        -178.20   -126.39    -74.62    179.19
   60.0        -178.28   -131.12    -73.33    179.27
   61.0        -178.33   -135.62    -69.06    179.36
   62.0        -178.41   -140.36    -64.78    179.40
   63.0        -178.45   -143.97    -60.41    179.48
   64.0        -178.53   -147.81    -55.70    179.52
   65.0        -178.62   -149.98    -50.89    179.61
   66.0        -178.66   -154.72    -46.07    179.65
   67.0        -178.74   -159.46    -40.83    179.73
   68.0        -178.79   -164.28    -34.12    179.82
   69.0        -178.87   -169.12    -28.31    179.86
   70.0        -178.91   -170.85    -21.40    179.90
   71.0         -10.78    177.91
   72.0          -0.85    170.48
   73.0          10.56    163.14
   74.0          27.58    150.33
   75.0          59.12    133.72
